Comment			
voltage(mV)		Control	.+Bup	diff
-149.575		-252.747	-167.404	-85.343
-149.565		-229.187	-169.861	-59.326
-149.577		-239.034	-167.801	-71.233
-149.622		-254.659	-169.479	-85.18
-149.626		-262.227	-175.369	-86.858
-149.632		-246.704	-172.043	-74.661
-149.459		-248.454	-177.582	-70.872
-149.345		-237.671	-164.246	-73.425
-149.152		-230.977	-167.862	-63.115
-148.991		-220.927	-160.934	-59.993
-148.788		-225.566	-171.02		-54.546
-148.713		-241.048	-152.191	-88.857
-148.652		-237.752	-155.563	-82.189
-148.497		-213.359	-168.35		-45.009
-148.322		-232.707	-158.417	-74.29
-148.123		-218.018	-164.429	-53.589
-148.021		-218.424	-145.798	-72.626
-147.832		-225.688	-139.053	-86.635
-147.683		-223.124	-156.57		-66.554
-147.533		-236.816	-165.375	-71.441
-147.439		-228.984	-152.649	-76.335
-147.268		-220.439	-153.198	-67.241
-147.136		-227.58		-154.724	-72.856
-147.006		-241.394	-147.766	-93.628
-146.778		-232.218	-155.609	-76.609
-146.711		-238.708	-178.665	-60.043
-146.542		-230.57		-173.874	-56.696
-146.403		-236.959	-166.473	-70.486
-146.275		-243.083	-164.185	-78.898
-146.163		-250.956	-168.243	-82.713
-145.988		-239.38		-161.087	-78.293
-145.834		-223.511	-170.135	-53.376
-145.614		-225.098	-158.615	-66.483
-145.555		-213.277	-171.143	-42.134
-145.331		-222.656	-164.337	-58.319
-145.254		-227.722	-161.575	-66.147
-145.055		-234.273	-165.024	-69.249
-144.884		-232.727	-172.226	-60.501
-144.755		-232.707	-174.957	-57.75
-144.617		-225.362	-181.641	-43.721
-144.469		-252.36		-174.622	-77.738
-144.328		-253.011	-150.711	-102.3
-144.218		-252.055	-144.318	-107.737
-144.035		-256.551	-162.491	-94.06
-143.942		-252.34		-163.467	-88.873
-143.809		-250.041	-160.507	-89.534
-143.632		-257.263	-162.109	-95.154
-143.478		-241.15		-159.363	-81.787
-143.368		-233.398	-150.482	-82.916
-143.203		-248.678	-146.408	-102.27
-143.093		-238.953	-146.042	-92.911
-142.898		-236.267	-140.518	-95.749
-142.778		-252.97		-145.035	-107.935
-142.564		-248.962	-150.589	-98.373
-142.416		-212.382	-141.769	-70.613
-142.286		-221.822	-132.477	-89.345
-142.176		-219.686	-131.363	-88.323
-141.966		-232.076	-140.976	-91.1
-141.903		-205.139	-143.6		-61.539
-141.759		-221.639	-138.397	-83.242
-141.679		-224.406	-142.395	-82.011
-141.455		-229.004	-141.647	-87.357
-141.266		-220.398	-146.347	-74.051
-141.093		-212.708	-150.742	-61.966
-140.971		-198.893	-143.677	-55.216
-140.876		-208.415	-138.473	-69.942
-140.863		-221.497	-154.556	-66.941
-140.625		-206.441	-139.374	-67.067
-140.465		-206.563	-128.708	-77.855
-140.328		-215.963	-152.618	-63.345
-140.139		-211.894	-152.039	-59.855
-140.037		-219.157	-141.052	-78.105
-139.871		-243.042	-133.591	-109.451
-139.738		-222.27		-141.861	-80.409
-139.602		-218.831	-148.743	-70.088
-139.474		-225.24		-137.878	-87.362
-139.264		-220.418	-137.772	-82.646
-139.128		-218.913	-150.619	-68.294
-138.971		-209.025	-144.196	-64.829
-138.823		-206.991	-152.878	-54.113
-138.715		-223.551	-157.516	-66.035
-138.599		-239.766	-149.277	-90.489
-138.412		-233.907	-139.465	-94.442
-138.235		-232.646	-130.493	-102.153
-138.137		-241.435	-135.696	-105.739
-138.035		-235.86		-140.579	-95.281
-137.885		-235.697	-139.297	-96.4
-137.749		-244.69		-119.461	-125.229
-137.529		-222.209	-133.972	-88.237
-137.376		-219.727	-130.325	-89.402
-137.279		-236.308	-118.652	-117.656
-137.073		-224.019	-126.343	-97.676
-136.957		-224.691	-128.586	-96.105
-136.833		-206.746	-132.019	-74.727
-136.699		-205.343	-142.364	-62.979
-136.536		-227.254	-131.943	-95.311
-136.428		-220.215	-139.587	-80.628
-136.282		-217.489	-146.255	-71.234
-136.194		-215.006	-144.226	-70.78
-135.977		-227.152	-139.145	-88.007
-135.84			-240.417	-138.824	-101.593
-135.633		-229.797	-149.765	-80.032
-135.533		-221.822	-134.964	-86.858
-135.421		-217.855	-146.912	-70.943
-135.25			-237.752	-151.703	-86.049
-135.083		-239.095	-138.336	-100.759
-135.022		-221.639	-145.905	-75.734
-134.815		-219.706	-142.578	-77.128
-134.664		-196.472	-140.701	-55.771
-134.491		-225.159	-149.384	-75.775
-134.408		-219.686	-139.282	-80.404
-134.231		-236.572	-146.011	-90.561
-134.123		-254.944	-153.915	-101.029
-133.91			-252.869	-143.448	-109.421
-133.792		-248.535	-141.998	-106.537
-133.674		-255.31		-138.748	-116.562
-133.456		-251.628	-146.133	-105.495
-133.399		-251.017	-144.806	-106.211
-133.204		-256.205	-144.028	-112.177
-133.134		-254.7		-148.407	-106.293
-132.968		-270.874	-148.468	-122.406
-132.805		-247.701	-121.826	-125.875
-132.616		-248.962	-127.029	-121.933
-132.473		-228.394	-136.261	-92.133
-132.443		-218.445	-133.286	-85.159
-132.215		-236.409	-128.693	-107.716
-132.009		-235.026	-118.683	-116.343
-131.946		-233.317	-125.763	-107.554
-131.777		-234.233	-114.792	-119.441
-131.619		-237.63		-119.08		-118.55
-131.509		-233.561	-115.631	-117.93
-131.362		-252.95		-132.523	-120.427
-131.163		-256.856	-123.352	-133.504
-131.082		-244.486	-136.017	-108.469
-130.886		-229.533	-116.47		-113.063
-130.77			-225.016	-136.002	-89.014
-130.648		-254.944	-129.669	-125.275
-130.443		-242.147	-132.202	-109.945
-130.349		-251.444	-135.941	-115.503
-130.239		-245.544	-142.09		-103.454
-130.032		-225.464	-121.811	-103.653
-129.922		-230.896	-120.651	-110.245
-129.771		-236.633	-117.737	-118.896
-129.578		-226.095	-132.141	-93.954
-129.499		-224.976	-122.803	-102.173
-129.352		-232.34		-129.303	-103.037
-129.228		-228.251	-141.495	-86.756
-129.073		-224.426	-138.214	-86.212
-128.919		-231.567	-141.434	-90.133
-128.781		-237.142	-137.802	-99.34
-128.518		-215.515	-127.624	-87.891
-128.518		-220.703	-127.274	-93.429
-128.315		-228.088	-134.842	-93.246
-128.184		-223.307	-138.031	-85.276
-128.054		-223.897	-129.639	-94.258
-127.924		-244.914	-128.22		-116.694
-127.714		-231.486	-129.501	-101.985
-127.586		-223.999	-126.404	-97.595
-127.446		-217.895	-138.336	-79.559
-127.253		-217.875	-133.331	-84.544
-127.157		-223.49		-130.356	-93.134
-126.988		-217.407	-136.475	-80.932
-126.892		-218.608	-137.009	-81.599
-126.787		-205.444	-145.02		-60.424
-126.591		-211.69		-129.471	-82.219
-126.402		-224.223	-140.03		-84.193
-126.366		-233.846	-140.167	-93.679
-126.132		-239.705	-123.947	-115.758
-125.973		-229.757	-118.973	-110.784
-125.845		-210.734	-128.281	-82.453
-125.733		-231.669	-121.14		-110.529
-125.562		-227.376	-117.752	-109.624
-125.444		-225.525	-107.193	-118.332
-125.269		-209.066	-111.755	-97.311
-125.108		-199.015	-116.821	-82.194
-124.968		-209.025	-116.196	-92.829
-124.801		-202.108	-125.58		-76.528
-124.728		-206.807	-123.062	-83.745
-124.571		-198.283	-125.885	-72.398
-124.408		-212.626	-125.687	-86.939
-124.223		-220.683	-126.236	-94.447
-124.085		-193.522	-128.22		-65.302
-123.916		-207.316	-121.887	-85.429
-123.91			-204.488	-126.709	-77.779
-123.615		-213.501	-125.244	-88.257
-123.525		-219.584	-130.951	-88.633
-123.383		-205.749	-133.469	-72.28
-123.263		-213.338	-138.351	-74.987
-123.11			-209.757	-125.381	-84.376
-122.954		-211.711	-118.759	-92.952
-122.779		-219.666	-123.138	-96.528
-122.689		-227.539	-115.906	-111.633
-122.506		-218.709	-112.9		-105.809
-122.351		-220.378	-113.48		-106.898
-122.223		-208.577	-125.656	-82.921
-122.156		-208.883	-117.599	-91.284
-121.961		-186.869	-94.2535	-92.6155
-121.827		-201.986	-105.118	-96.868
-121.696		-195.516	-124.527	-70.989
-121.491		-167.501	-115.448	-52.053
-121.401		-177.165	-110.794	-66.371
-121.169		-189.779	-110.855	-78.924
-121.08			-212.219	-110.504	-101.715
-120.944		-192.403	-119.629	-72.774
-120.801		-213.135	-112.579	-100.556
-120.655		-221.781	-109.543	-112.238
-120.539		-216.838	-115.341	-101.497
-120.35			-213.013	-116.791	-96.222
-120.248		-203.756	-118.103	-85.653
-120.044		-189.107	-112.198	-76.909
-119.928		-196.452	-119.278	-77.174
-119.762		-207.275	-105.423	-101.852
-119.585		-188.721	-114.304	-74.417
-119.456		-209.29		-121.49		-87.8
-119.33			-207.377	-133.56		-73.817
-119.233		-204.895	-127.655	-77.24
-119.096		-196.574	-123.81		-72.764
-118.889		-196.96		-121.368	-75.592
-118.793		-206.38		-128.677	-77.703
-118.569		-194.743	-113.571	-81.172
-118.447		-197.205	-113.586	-83.619
-118.35			-193.848	-107.483	-86.365
-118.205		-193.949	-109.955	-83.994
-118.051		-195.028	-104.065	-90.963
-117.839		-212.138	-111.13		-101.008
-117.733		-196.106	-118.393	-77.713
-117.638		-188.11		-115.25		-72.86
-117.471		-205.851	-114.777	-91.074
-117.263		-205.566	-106.842	-98.724
-117.178		-190.124	-106.293	-83.831
-117.017		-193.746	-118.317	-75.429
-116.889		-200.155	-117.508	-82.647
-116.696		-214.579	-105.057	-109.522
-116.669		-210.653	-107.208	-103.445
-116.388		-209.554	-113.693	-95.861
-116.325		-202.535	-127.96		-74.575
-116.142		-203.491	-129.486	-74.005
-116.002		-206.116	-123.26		-82.856
-115.845		-210.47		-107.01		-103.46
-115.729		-202.108	-105.438	-96.67
-115.548		-208.252	-112.427	-95.825
-115.457		-198.893	-110.886	-88.007
-115.292		-196.757	-104.858	-91.899
-115.103		-195.74		-104.767	-90.973
-115.007		-206.767	-112.442	-94.325
-114.921		-197.001	-116.44		-80.561
-114.724		-205.648	-117.828	-87.82
-114.576		-204.59		-110.977	-93.613
-114.443		-197.347	-104.98		-92.367
-114.264		-188.965	-115.417	-73.548
-114.183		-196.716	-114.593	-82.123
-113.967		-216.105	-105.118	-110.987
-113.861		-223.45		-109.787	-113.663
-113.65			-219.462	-109.68		-109.782
-113.487		-208.679	-109.543	-99.136
-113.351		-198.608	-108.078	-90.53
-113.308		-200.704	-115.295	-85.409
-113.066		-205.546	-111.313	-94.233
-112.964		-197.428	-106.079	-91.349
-112.822		-198.629	-106.598	-92.031
-112.74			-203.857	-100.418	-103.439
-112.488		-194.153	-97.5494	-96.6036
-112.384		-206.665	-104.507	-102.158
-112.238		-199.768	-118.256	-81.512
-112.087		-218.424	-107.376	-111.048
-111.965		-217.183	-110.428	-106.755
-111.935		-206.868	-115.753	-91.115
-111.735		-196.757	-119.522	-77.235
-111.465		-185.425	-120.499	-64.926
-111.361		-190.063	-122.116	-67.947
-111.274		-188.07		-117.767	-70.303
-111.119		-199.768	-126.221	-73.547
-110.983		-217.957	-122.208	-95.749
-110.836		-214.478	-121.094	-93.384
-110.647		-210.632	-126.48		-84.152
-110.433		-206.726	-122.818	-83.908
-110.348		-203.634	-116.562	-87.072
-110.23			-209.676	-105.164	-104.512
-110.079		-217		-107.452	-109.548
-109.9797		-227.824	-106.628	-121.196
-109.8169		-220.642	-109.802	-110.84
-109.6419		-214.071	-114.944	-99.127
-109.4425		-213.074	-116.455	-96.619
-109.4059		-224.243	-110.413	-113.83
-109.1842		-218.994	-123.459	-95.535
-109.0662		-214.376	-117.63		-96.746
-108.8627		-221.985	-117.92		-104.065
-108.7223		-213.013	-115.677	-97.336
-108.586		-217.387	-120.529	-96.858
-108.4273		-203.573	-132.706	-70.867
-108.3622		-206.807	-130.371	-76.436
-108.1649		-191.406	-115.875	-75.531
-108.0489		-207.235	-123.993	-83.242
-107.9309		-215.474	-126.343	-89.131
-107.7254		-221.883	-118.835	-103.048
-107.6196		-212.87		-115.86		-97.01
-107.467		-213.338	-112.518	-100.82
-107.2941		-216.166	-121.597	-94.569
-107.1598		-218.953	-123.962	-94.991
-107.0256		-211.365	-118.179	-93.186
-106.9503		-227.193	-113.922	-113.271
-106.7			-227.315	-119.171	-108.144
-106.6715		-233.256	-120.193	-113.063
-106.4945		-220.093	-111.16		-108.933
-106.3298		-209.839	-115.921	-93.918
-106.2016		-211.487	-113.647	-97.84
-105.9757		-212.992	-102.432	-110.56
-105.8822		-212.748	-111.694	-101.054
-105.7499		-219.381	-105.591	-113.79
-105.6685		-215.393	-107.834	-107.559
-105.4386		-217.733	-114.838	-102.895
-105.3695		-232.34		-110.916	-121.424
-105.1457		-238.281	-99.9756	-138.3054
-105.0114		-225.26		-93.3838	-131.8762
-104.8873		-233.114	-92.8497	-140.2643
-104.7062		-223.165	-97.6562	-125.5088
-104.6045		-223.002	-103.638	-119.364
-104.3868		-225.83		-105.347	-120.483
-104.399		-234.029	-104.752	-129.277
-104.1508		-226.807	-109.36		-117.447
-103.9941		-239.502	-126.877	-112.625
-103.8883		-215.23		-121.033	-94.197
-103.7113		-213.969	-110.321	-103.648
-103.5506		-216.37		-115.005	-101.365
-103.396		-208.15		-119.705	-88.445
-103.3553		-204.061	-120.407	-83.654
-103.1356		-207.092	-116.257	-90.835
-103.0501		-206.278	-118.195	-88.083
-102.8426		-195.821	-116.043	-79.778
-102.7185		-203.512	-116.043	-87.469
-102.629		-205.749	-117.126	-88.623
-102.4581		-195.76		-116.089	-79.671
-102.218		-214.396	-119.354	-95.042
-102.1163		-207.56		-120.56		-87
-101.982		-198.995	-115.036	-83.959
-101.8274		-200.338	-114.151	-86.187
-101.6545		-181.681	-109.695	-71.986
-101.5324		-186.849	-105.118	-81.731
-101.4022		-179.871	-105.576	-74.295
-101.274		-181.763	-118.149	-63.614
-101.0889		-185.893	-115.662	-70.231
-100.9729		-203.328	-118.835	-84.493
-100.8081		-196.065	-104.782	-91.283
-100.6942		-198.608	-104.919	-93.689
-100.566		-201.355	-105.194	-96.161
-100.3666		-194.112	-113.8		-80.312
-100.2466		-209.473	-109.024	-100.449
-100.0452		-213.338	-106.171	-107.167
-100.0208		-201.457	-108.231	-93.226
-99.801			-199.849	-108.78		-91.069
-99.6464		-194.478	-117.233	-77.245
-99.5304		-205.607	-118.408	-87.199
-99.3311		-201.742	-105.698	-96.044
-99.1846		-204.793	-107.239	-97.554
-99.0706		-194.865	-116.241	-78.624
-98.8875		-210.002	-111.679	-98.323
-98.8			-213.806	-114.166	-99.64
-98.6637		-216.39		-109.955	-106.435
-98.4989		-207.906	-109.543	-98.363
-98.3484		-207.621	-99.7467	-107.8743
-98.206			-200.948	-103.882	-97.066
-98.0127		-192.973	-107.422	-85.551
-97.9069		-188.192	-103.241	-84.951
-97.8255		-187.764	-112.503	-75.261
-97.6302		-192.078	-109.65		-82.428
-97.5366		-179.464	-110.855	-68.609
-97.4613		-186.686	-107.3		-79.386
-97.2457		-181.844	-103.622	-78.222
-97.0097		-184.57		-101.501	-83.069
-96.8917		-189.657	-104.019	-85.638
-96.7635		-204.407	-113.617	-90.79
-96.5865		-186.157	-114.624	-71.533
-96.4604		-192.586	-106.293	-86.293
-96.3586		-181.335	-106.171	-75.164
-96.1979		-187.948	-102.509	-85.439
-96.0291		-186.117	-102.982	-83.135
-95.9477		-190.877	-102.173	-88.704
-95.7564		-192.098	-104.156	-87.942
-95.5896		-195.109	-92.987		-102.122
-95.4777		-188.11		-92.6666	-95.4434
-95.3109		-191.833	-95.6421	-96.1909
-95.1359		-200.684	-97.3663	-103.3177
-94.9996		-194.214	-100.403	-93.811
-94.9447		-186.483	-106.079	-80.404
-94.731			-188.985	-95.9015	-93.0835
-94.609			-189.534	-94.8639	-94.6701
-94.432			-198.914	-98.9837	-99.9303
-94.3038		-199.971	-93.7347	-106.2363
-94.1512		-193.359	-89.2944	-104.0646
-93.9742		-195.251	-89.9963	-105.2547
-93.9213		-196.147	-90.7593	-105.3877
-93.7077		-189.982	-96.4966	-93.4854
-93.5592		-188.253	-91.8274	-96.4256
-93.4839		-184.469	-92.7887	-91.6803
-93.3171		-182.251	-90.5304	-91.7206
-93.1299		-178.731	-86.4868	-92.2442
-92.9549		-172.689	-88.913		-83.776
-92.8044		-180.4		-91.507		-88.893
-92.6986		-189.473	-91.8121	-97.6609
-92.5562		-191.305	-96.9391	-94.3659
-92.4483		-196.025	-105.56		-90.465
-92.251			-193.746	-98.3581	-95.3879
-92.137			-192.444	-94.8334	-97.6106
-92.0068		-205.526	-94.0704	-111.4556
-91.8481		-207.845	-92.5293	-115.3157
-91.7017		-195.292	-95.4895	-99.8025
-91.5308		-183.533	-99.2279	-84.3051
-91.4209		-185.242	-99.8535	-85.3885
-91.2337		-175.496	-95.1691	-80.3269
-91.1686		-178.711	-99.4873	-79.2237
-90.9489		-181.885	-101.364	-80.521
-90.9062		-194.702	-100.098	-94.604
-90.6478		-186.096	-87.4634	-98.6326
-90.5298		-179.993	-77.774		-102.219
-90.4138		-176.778	-85.022		-91.756
-90.2531		-174.154	-81.7413	-92.4127
-90.0964		-182.638	-85.8307	-96.8073
-89.9398		-179.016	-91.7053	-87.3107
-89.8869		-172.526	-88.4552	-84.0708
-89.6305		-178.08		-90.6372	-87.4428
-89.4861		-193.583	-84.9609	-108.6221
-89.3742		-190.084	-80.8258	-109.2582
-89.2013		-191.305	-71.0754	-120.2296
-89.069			-185.669	-82.2296	-103.4394
-88.9164		-176.188	-93.399		-82.789
-88.8106		-189.758	-89.035		-100.723
-88.6987		-186.991	-90.3931	-96.5979
-88.5217		-184.367	-92.865		-91.502
-88.4058		-179.423	-103.241	-76.182
-88.2633		-189.087	-99.5025	-89.5845
-88.0741		-179.057	-95.5658	-83.4912
-87.8951		-176.29		-99.5941	-76.6959
-87.7832		-174.052	-98.6633	-75.3887
-87.6957		-177.043	-88.0737	-88.9693
-87.5126		-175.598	-90.0421	-85.5559
-87.3132		-175.863	-87.3413	-88.5217
-87.1973		-191.956	-86.441		-105.515
-87.0854		-181.864	-87.3413	-94.5227
-86.9267		-185.079	-87.8754	-97.2036
-86.7802		-176.676	-92.4072	-84.2688
-86.6764		-176.554	-89.5843	-86.9697
-86.4954		-171.305	-88.623		-82.682
-86.3468		-177.266	-92.1326	-85.1334
-86.2919		-186.218	-84.6863	-101.5317
-86.0661		-167.44		-78.6438	-88.7962
-85.8586		-168.762	-76.3702	-92.3918
-85.7731		-165.751	-86.2274	-79.5236
-85.6714		-171.855	-88.9282	-82.9268
-85.5107		-170.43		-80.2002	-90.2298
-85.352			-168.091	-73.3643	-94.7267
-85.179			-171.02		-77.6062	-93.4138
-85.0265		-175.334	-75.2563	-100.0777
-84.9268		-174.357	-76.5839	-97.7731
-84.8556		-179.118	-77.0874	-102.0306
-84.6643		-177.999	-77.2095	-100.7895
-84.526			-181.722	-84.1217	-97.6003
-84.3449		-176.575	-76.9958	-99.5792
-84.1638		-181.783	-77.9571	-103.8259
-84.0194		-182.109	-80.5664	-101.5426
-83.9421		-184.489	-82.9315	-101.5575
-83.7284		-180.501	-88.5467	-91.9543
-83.6572		-179.301	-87.7075	-91.5935
-83.527			-181.783	-82.2754	-99.5076
-83.3419		-184.631	-84.8236	-99.8074
-83.1934		-174.662	-81.9702	-92.6918
-83.0001		-178.813	-76.2024	-102.6106
-83.0204		-179.382	-64.4989	-114.8831
-82.7804		-176.046	-62.8509	-113.1951
-82.5545		-180.644	-63.7512	-116.8928
-82.4772		-183.248	-66.2231	-117.0249
-82.3267		-183.655	-69.5343	-114.1207
-82.1354		-175.822	-70.6177	-105.2043
-82.0032		-164.49		-66.6504	-97.8396
-81.8547		-171.57		-60.8063	-110.7637
-81.7651		-176.473	-61.6608	-114.8122
-81.5881		-183.879	-66.4062	-117.4728
-81.4071		-184.55		-72.0062	-112.5438
-81.3013		-177.511	-74.6155	-102.8955
-81.1263		-184.53		-74.7223	-109.8077
-80.9371		-173.157	-77.3773	-95.7797
-80.8272		-168.66		-74.9664	-93.6936
-80.7113		-158.264	-70.7397	-87.5243
-80.638			-164.388	-76.6601	-87.7279
-80.4061		-173.258	-72.4792	-100.7788
-80.2576		-175.517	-72.3114	-103.2056
-80.1681		-173.116	-73.4863	-99.6297
-80.0175		-166.158	-73.0743	-93.0837
-79.8527		-171.468	-71.2433	-100.2247
-79.7205		-171.326	-72.1435	-99.1825
-79.5699		-167.033	-73.5321	-93.5009
-79.3583		-162.231	-71.0754	-91.1556
-79.3217		-159.871	-73.5168	-86.3542
-79.1162		-161.438	-77.3773	-84.0607
-78.9453		-163.127	-81.5735	-81.5535
-78.8212		-155.66		-81.253		-74.407
-78.7642		-161.784	-78.6438	-83.1402
-78.5913		-162.638	-75.6683	-86.9697
-78.4001		-169.434	-74.7986	-94.6354
-78.2251		-166.585	-78.4912	-88.0938
-78.099			-161.967	-78.4759	-83.4911
-77.9423		-168.396	-79.6661	-88.7299
-77.8792		-168.355	-73.5779	-94.7771
-77.6575		-170.308	-72.8149	-97.4931
-77.4947		-166.626	-65.5823	-101.0437
-77.3889		-167.725	-69.1223	-98.6027
-77.2384		-165.283	-67.6422	-97.6408
-77.0858		-167.501	-68.9087	-98.5923
-76.9637		-165.731	-74.6307	-91.1003
-76.7867		-169.861	-68.8324	-101.0286
-76.6016		-169.657	-76.7212	-92.9358
-76.5243		-171.122	-78.598		-92.524
-76.3513		-163.493	-70.404		-93.089
-76.2394		-162.821	-68.9087	-93.9123
-76.1255		-161.112	-64.3768	-96.7352
-75.977			-161.133	-62.7136	-98.4194
-75.8732		-169.434	-60.8978	-108.5362
-75.6453		-167.053	-65.9485	-101.1045
-75.5375		-166.809	-63.736		-103.073
-75.3381		-151.835	-61.0657	-90.7693
-75.1978		-158.793	-63.6139	-95.1791
-75.0899		-153.768	-64.9109	-88.8571
-74.9719		-157.227	-65.8417	-91.3853
-74.8336		-155.619	-68.9239	-86.6951
-74.683			-149.394	-66.8335	-82.5605
-74.4633		-148.153	-61.9202	-86.2328
-74.3534		-141.276	-68.1		-73.176
-74.152			-149.984	-63.8885	-86.0955
-74.0259		-150.92		-60.9131	-90.0069
-73.9384		-152.486	-63.7817	-88.7043
-73.7939		-147.766	-63.5681	-84.1979
-73.6373		-147.522	-60.5163	-87.0057
-73.4766		-154.643	-64.8346	-89.8084
-73.2772		-158.04		-65.918		-92.122
-73.1917		-150.777	-65.1092	-85.6678
-73.0778		-154.175	-65.3534	-88.8216
-72.8682		-153.87		-66.4978	-87.3722
-72.738			-151.713	-69.397		-82.316
-72.5854		-153.259	-67.5659	-85.6931
-72.4451		-151.388	-64.2242	-87.1638
-72.3067		-150.675	-63.9343	-86.7407
-72.262			-148.661	-63.1256	-85.5354
-71.9629		-160.95		-72.7997	-88.1503
-71.9405		-158.813	-72.5098	-86.3032
-71.7249		-164.429	-69.1376	-95.2914
-71.6374		-165.365	-69.6716	-95.6934
-71.4115		-157.003	-66.1621	-90.8409
-71.3261		-163.696	-70.6787	-93.0173
-71.1898		-158.854	-72.8149	-86.0391
-71.0352		-159.77		-67.8253	-91.9447
-70.8561		-155.375	-61.2183	-94.1567
-70.8053		-148.804	-62.027		-86.777
-70.5347		-150.492	-60.8368	-89.6552
-70.4635		-153.625	-57.9376	-95.6874
-70.3129		-148.58		-56.7932	-91.7868
-70.1318		-143.412	-55.8014	-87.6106
-69.9833		-140.91		-53.6652	-87.2448
-69.8674		-134.623	-53.5889	-81.0341
-69.672			-141.276	-52.5665	-88.7095
-69.6151		-145.284	-59.0973	-86.1867
-69.4564		-145.793	-54.5654	-91.2276
-69.2896		-145.65		-57.9376	-87.7124
-69.1817		-149.129	-55.6335	-93.4955
-68.9437		-140.544	-61.9354	-78.6086
-68.787			-136.576	-67.4133	-69.1627
-68.6711		-147.054	-61.6913	-85.3627
-68.5999		-143.311	-61.142		-82.169
-68.4452		-149.231	-63.5071	-85.7239
-68.2723		-145.65		-59.3719	-86.2781
-68.1604		-149.15		-61.5082	-87.6418
-68.0058		-153.788	-60.3485	-93.4395
-67.8247		-151.306	-55.3741	-95.9319
-67.7352		-146.484	-60.3332	-86.1508
-67.5297		-144.694	-56.9458	-87.7482
-67.371			-146.769	-56.6559	-90.1131
-67.2774		-144.328	-58.197		-86.131
-67.0821		-140.503	-55.8166	-84.6864
-67.0048		-147.257	-54.0771	-93.1799
-66.8461		-140.971	-58.3801	-82.5909
-66.6284		-143.127	-60.9436	-82.1834
-66.547			-142.619	-62.973		-79.646
-66.3843		-142.456	-58.0749	-84.3811
-66.2459		-145.426	-62.6373	-82.7887
-66.0811		-140.767	-61.6608	-79.1062
-65.9591		-154.622	-60.8673	-93.7547
-65.8024		-149.882	-55.2826	-94.5994
-65.721			-154.785	-53.009		-101.776
-65.5318		-150.92		-55.5267	-95.3933
-65.4077		-149.638	-52.2766	-97.3614
-65.2775		-148.295	-53.4363	-94.8587
-65.1168		-149.272	-50.8423	-98.4297
-64.9622		-149.109	-46.5851	-102.5239
-64.7729		-145.142	-43.9453	-101.1967
-64.6468		-146.993	-44.3573	-102.6357
-64.5105		-145.589	-43.5944	-101.9946
-64.4047		-140.849	-44.9219	-95.9271
-64.189			-139.079	-48.111		-90.968
-64.0568		-143.046	-47.2717	-95.7743
-63.9429		-144.267	-50.293		-93.974
-63.8717		-143.433	-52.3682	-91.0648
-63.6682		-131.877	-52.7039	-79.1731
-63.4729		-146.016	-51.6357	-94.3803
-63.3468		-139.343	-50.5981	-88.7449
-63.2064		-134.542	-51.7425	-82.7995
-63.0863		-134.705	-52.7039	-82.0011
-62.9317		-136.637	-49.9878	-86.6492
-62.8056		-137.899	-52.9175	-84.9815
-62.6794		-125.02		-54.2145	-70.8055
-62.4455		-121.582	-52.5207	-69.0613
-62.3763		-129.72		-53.8788	-75.8412
-62.2278		-124.634	-50.9644	-73.6696
-62.1138		-124.634	-49.4842	-75.1498
-61.884			-128.377	-46.7071	-81.6699
-61.6988		-130.676	-52.1851	-78.4909
-61.5544		-128.54		-54.779		-73.761
-61.4282		-131.165	-54.9011	-76.2639
-61.3245		-133.626	-50.7812	-82.8448
-61.1739		-131.368	-52.3529	-79.0151
-61.0376		-135.742	-53.4821	-82.2599
-60.9013		-142.212	-51.7731	-90.4389
-60.706			-142.192	-53.4668	-88.7252
-60.5534		-136.759	-51.5594	-85.1996
-60.4232		-131.632	-47.1802	-84.4518
-60.3337		-130.29		-51.4069	-78.8831
-60.1546		-130.086	-48.9044	-81.1816
-60.0142		-132.121	-49.2248	-82.8962
-59.9084		-135.701	-42.2668	-93.4342
-59.7233		-131.755	-44.7388	-87.0162
-59.589			-136.312	-42.8162	-93.4958
-59.5382		-138.163	-43.8232	-94.3398
-59.3062		-140.605	-44.0979	-96.5071
-59.1618		-131.999	-44.2352	-87.7638
-58.9909		-133.118	-42.9687	-90.1493
-58.8444		-137.614	-44.1894	-93.4246
-58.7528		-140.096	-43.5028	-96.5932
-58.5881		-146.342	-40.0391	-106.3029
-58.3907		-139.384	-44.1284	-95.2556
-58.289			-146.769	-40.1154	-106.6536
-58.173			-142.029	-38.1927	-103.8363
-58.0245		-136.556	-38.6963	-97.8597
-57.8658		-137.634	-37.8418	-99.7922
-57.7417		-139.262	-40.329		-98.933
-57.5667		-135.681	-38.7573	-96.9237
-57.4284		-136.108	-37.6892	-98.4188
-57.3246		-130.676	-33.5998	-97.0762
-57.1212		-129.72		-33.7372	-95.9828
-56.9727		-128.296	-34.6832	-93.6128
-56.8852		-129.313	-35.9192	-93.3938
-56.7346		-127.299	-36.1481	-91.1509
-56.6044		-127.747	-34.5001	-93.2469
-56.46			-124.959	-32.5928	-92.3662
-56.2382		-129.639	-33.02		-96.619
-56.0897		-127.258	-36.9873	-90.2707
-56.0388		-123.311	-38.2385	-85.0725
-55.8557		-124.573	-36.85		-87.723
-55.6665		-128.764	-36.85		-91.914
-55.5668		-121.989	-38.4369	-83.5521
-55.3491		-119.08		-37.3993	-81.6807
-55.2271		-115.784	-34.8358	-80.9482
-55.048			-113.831	-36.3922	-77.4388
-54.9544		-118.774	-37.9028	-80.8712
-54.814			-124.471	-37.7502	-86.7208
-54.7184		-128.499	-40.9546	-87.5444
-54.5353		-125.02		-39.856		-85.164
-54.4295		-132.528	-42.8467	-89.6813
-54.3197		-136.169	-37.6587	-98.5103
-54.104			-135.356	-39.3372	-96.0188
-54.0918		-129.72		-40.0238	-89.6962
-53.8049		-125.753	-41.2445	-84.5085
-53.7297		-131.938	-43.3655	-88.5725
-53.4916		-130.493	-40.5884	-89.9046
-53.3695		-127.36		-37.6739	-89.6861
-53.2597		-129.374	-38.7726	-90.6014
-53.0501		-131.063	-39.2609	-91.8021
-52.9057		-129.903	-38.62		-91.283
-52.7979		-120.199	-38.9557	-81.2433
-52.6615		-113.505	-36.6058	-76.8992
-52.513			-119.161	-38.1775	-80.9835
-52.3279		-119.751	-36.1023	-83.6487
-52.2099		-117.533	-38.0859	-79.4471
-52.0227		-120.626	-40.2222	-80.4038
-51.8884		-123.088	-40.5426	-82.5454
-51.746			-118.917	-39.032		-79.885
-51.6484		-118.327	-37.8113	-80.5157
-51.4836		-119.059	-39.917		-79.142
-51.3493		-123.84		-40.9851	-82.8549
-51.1845		-125.793	-40.1001	-85.6929
-51.0706		-126.831	-36.2244	-90.6066
-50.9098		-124.105	-36.4838	-87.6212
-50.7511		-118.449	-36.438		-82.011
-50.623			-126.119	-39.1083	-87.0107
-50.4744		-125.834	-35.9497	-89.8843
-50.3605		-126.587	-38.8184	-87.7686
-50.1632		-123.088	-36.4838	-86.6042
-50.0675		-121.969	-34.2407	-87.7283
-49.8865		-124.227	-36.7737	-87.4533
-49.801			-118.368	-35.3546	-83.0134
-49.6281		-116.984	-36.0413	-80.9427
-49.4999		-116.597	-37.1704	-79.4266
-49.3514		-122.253	-38.269		-83.984
-49.1215		-118.53		-39.6271	-78.9029
-49.1378		-118.49		-41.2903	-77.1997
-48.8489		-120.85		-40.4968	-80.3532
-48.7268		-118.123	-40.9241	-77.1989
-48.5783		-114.095	-39.5813	-74.5137
-48.4237		-116.048	-38.5132	-77.5348
-48.2528		-111.816	-40.8478	-70.9682
-48.1978		-112.569	-37.1399	-75.4291
-48.0575		-115.417	-34.6527	-80.7643
-47.8886		-113.831	-31.8909	-81.9401
-47.736			-111.348	-33.0811	-78.2669
-47.5366		-111.938	-33.6761	-78.2619
-47.4573		-117.92		-36.3312	-81.5888
-47.2884		-112.752	-36.7584	-75.9936
-47.1541		-116.028	-33.7524	-82.2756
-47.0443		-113.383	-36.7737	-76.6093
-46.9344		-113.607	-34.0424	-79.5646
-46.7472		-109.843	-33.7524	-76.0906
-46.558			-110.067	-32.3029	-77.7641
-46.4258		-108.948	-37.5671	-71.3809
-46.2752		-106.771	-37.8418	-68.9292
-46.1715		-101.359	-36.3769	-64.9821
-46.0331		-99.5687	-35.5072	-64.0615
-45.9253		-100.932	-30.9143	-70.0177
-45.7178		-106.527	-32.4402	-74.0868
-45.5469		-104.126	-30.7312	-73.3948
-45.4594		-104.553	-29.007		-75.546
-45.2173		-102.6		-29.6326	-72.9674
-45.1115		-105.265	-28.9917	-76.2733
-45.0281		-101.685	-27.5726	-74.1124
-44.8857		-99.6704	-28.1982	-71.4722
-44.7331		-100.647	-30.3192	-70.3278
-44.554			-98.47		-30.7465	-67.7235
-44.3587		-99.3245	-31.0059	-68.3186
-44.2285		-99.9756	-31.2042	-68.7714
-44.1634		-98.8363	-34.8053	-64.031
-43.9579		-98.6938	-34.9731	-63.7207
-43.8806		-97.29		-36.5295	-60.7605
-43.6711		-94.5638	-34.9274	-59.6364
-43.5429		-94.991		-35.5072	-59.4838
-43.3964		-95.3572	-33.8135	-61.5437
-43.2804		-95.0724	-33.4778	-61.5946
-43.0933		-93.5262	-31.6925	-61.8337
-43.0221		-97.1883	-29.5258	-67.6625
-42.7535		-93.9128	-30.426		-63.4868
-42.6864		-94.2993	-31.9519	-62.3474
-42.5704		-100.85		-32.3029	-68.5471
-42.3812		-97.6155	-33.0505	-64.565
-42.2327		-92.7531	-30.9448	-61.8083
-42.0577		-92.5496	-33.4625	-59.0871
-41.9214		-91.6544	-33.9203	-57.7341
-41.8766		-93.6279	-32.7911	-60.8368
-41.6305		-95.8455	-35.2478	-60.5977
-41.5104		-96.7		-33.3252	-63.3748
-41.3497		-96.7407	-35.3851	-61.3556
-41.2561		-95.1538	-35.1105	-60.0433
-41.075			-96.4355	-31.723		-64.7125
-40.9224		-98.3073	-31.8451	-66.4622
-40.778			-91.512		-31.1584	-60.3536
-40.66			-93.4245	-31.2195	-62.205
-40.5176		-89.4979	-29.0527	-60.4452
-40.2979		-88.0534	-28.7628	-59.2906
-40.2327		-90.4337	-28.5187	-61.915
-40.0293		-87.5447	-27.5269	-60.0178
-39.9662		-87.4227	-28.1982	-59.2245
-39.7892		-87.5651	-24.4446	-63.1205
-39.657			-85.8765	-25.8942	-59.9823
-39.598			-84.7778	-26.3672	-58.4106
-39.2745		-85.0423	-24.8718	-60.1705
-39.2725		-87.6261	-26.062		-61.5641
-39.0487		-86.4258	-24.6887	-61.7371
-38.953			-87.972		-25.6653	-62.3067
-38.7882		-88.1144	-27.0233	-61.0911
-38.6458		-90.1082	-28.4576	-61.6506
-38.54			-86.6089	-27.5574	-59.0515
-38.3162		-85.3882	-26.5808	-58.8074
-38.2145		-85.0627	-23.5596	-61.5031
-38.009			-84.554		-23.7579	-60.7961
-37.8442		-85.144		-20.9045	-64.2395
-37.8239		-83.5164	-24.2767	-59.2397
-37.596			-84.9202	-21.9879	-62.9323
-37.4902		-82.7637	-21.3623	-61.4014
-37.3397		-83.1299	-20.1111	-63.0188
-37.1484		-80.1798	-21.0266	-59.1532
-37.002			-78.5929	-21.1792	-57.4137
-36.9653		-75.4394	-20.2789	-55.1605
-36.6947		-77.9826	-21.637		-56.3456
-36.5828		-79.1422	-21.9574	-57.1848
-36.4221		-75.9888	-19.8212	-56.1676
-36.3143		-75.5819	-20.1111	-55.4708
-36.1515		-73.2829	-18.7225	-54.5604
-36.0498		-70.3532	-18.4631	-51.8901
-35.8382		-70.048		-19.4702	-50.5778
-35.7528		-68.6442	-20.2179	-48.4263
-35.5412		-67.9728	-20.1416	-47.8312
-35.4374		-70.7601	-19.6838	-51.0763
-35.2665		-73.4456	-16.6779	-56.7677
-35.1607		-72.998		-18.2495	-54.7485
-35.0102		-71.7977	-18.9056	-52.8921
-34.8861		-68.7663	-20.401		-48.3653
-34.7518		-67.22		-20.9198	-46.3002
-34.5789		-66.3249	-20.8893	-45.4356
-34.3774		-65.6738	-17.7155	-47.9583
-34.2615		-62.6221	-16.1896	-46.4325
-34.1516		-67.8101	-15.564		-52.2461
-34.0519		-67.0369	-17.3187	-49.7182
-33.8363		-67.1997	-14.6332	-52.5665
-33.7142		-68.929		-15.7013	-53.2277
-33.5189		-67.4845	-16.2506	-51.2339
-33.4049		-65.5721	-13.3667	-52.2054
-33.291			-67.4845	-14.2975	-53.187
-33.1181		-68.1356	-14.9078	-53.2278
-33.0367		-67.9321	-15.6708	-52.2613
-32.819			-64.3921	-15.625		-48.7671
-32.6827		-64.5548	-17.5629	-46.9919
-32.4874		-64.9617	-17.0288	-47.9329
-32.3735		-67.6066	-17.2729	-50.3337
-32.2799		-66.7928	-16.9373	-49.8555
-32.1029		-67.3625	-15.5945	-51.768
-31.936			-63.9038	-15.7928	-48.111
-31.8567		-66.04		-16.1743	-49.8657
-31.6939		-59.021		-15.2893	-43.7317
-31.578			-63.5783	-16.1438	-47.4345
-31.3847		-64.1479	-15.564		-48.5839
-31.283			-62.8662	-13.5956	-49.2706
-31.108			-64.3717	-13.6566	-50.7151
-30.9574		-60.5876	-14.6942	-45.8934
-30.8577		-61.6252	-14.9231	-46.7021
-30.6767		-63.0493	-15.7776	-47.2717
-30.4549		-64.7583	-15.1672	-49.5911
-30.3145		-63.619		-14.6484	-48.9706
-30.2209		-61.6862	-16.3269	-45.3593
-30.0724		-60.8114	-16.8304	-43.981
-29.9219		-59.4279	-14.4501	-44.9778
-29.7856		-57.841		-13.0157	-44.8253
-29.7062		-57.4341	-12.1765	-45.2576
-29.5597		-55.5013	-14.6637	-40.8376
-29.3746		-57.2103	-11.4136	-45.7967
-29.2118		-58.6344	-14.4043	-44.2301
-29.0592		-60.0382	-14.8926	-45.1456
-28.9331		-59.7127	-14.0533	-45.6594
-28.8151		-56.2541	-11.5814	-44.6727
-28.6381		-59.2244	-11.8713	-47.3531
-28.5669		-57.6579	-11.8256	-45.8323
-28.3675		-54.5451	-11.673		-42.8721
-28.1844		-55.8268	-8.7738		-47.053
-28.0278		-54.1789	-9.91821	-44.26069
-27.8548		-52.3275	-9.96399	-42.36351
-27.7144		-48.4416	-9.93347	-38.50813
-27.6656		-53.1209	-9.62829	-43.49261
-27.4947		-52.0223	-10.1318	-41.8905
-27.3035		-53.9958	-10.3149	-43.6809
-27.218			-54.2806	-10.3149	-43.9657
-27.0573		-52.6937	-10.6812	-42.0125
-26.9169		-50.5574	-11.0168	-39.5406
-26.7135		-50.4964	-10.498		-39.9984
-26.5466		-50.8626	-11.8256	-39.037
-26.4978		-50.6795	-10.788		-39.8915
-26.3411		-51.9613	-12.1765	-39.7848
-26.1438		-49.8861	-10.2539	-39.6322
-26.0177		-52.2257	-11.2		-41.0257
-25.9363		-53.0192	-9.84192	-43.17728
-25.7104		-52.5309	-8.37707	-44.15383
-25.5782		-53.5278	-8.37707	-45.15073
-25.4399		-51.0661	-8.36182	-42.70428
-25.3076		-51.6357	-7.78198	-43.85372
-25.2201		-49.1943	-10.0861	-39.1082
-25.0981		-47.6074	-10.788		-36.8194
-24.919			-48.3195	-11.4136	-36.9059
-24.681			-47.8922	-11.3831	-36.5091
-24.5549		-48.1567	-10.437		-37.7197
-24.4185		-46.4884	-11.3678	-35.1206
-24.2985		-47.0378	-9.82666	-37.21114
-24.1602		-45.105		-8.62121	-36.48379
-24.0137		-43.3146	-7.88879	-35.42581
-23.8387		-45.4305	-8.17871	-37.25179
-23.6882		-43.2943	-9.3689		-33.9254
-23.5742		-41.7887	-8.8501		-32.9386
-23.4969		-43.2332	-9.84192	-33.39128
-23.3118		-42.8467	-8.11767	-34.72903
-23.1368		-40.7308	-6.62231	-34.10849
-22.9862		-42.2363	-9.07898	-33.15732
-22.8418		-40.507		-6.63757	-33.86943
-22.7136		-41.687		-6.94275	-34.74425
-22.5651		-39.6118	-8.01086	-31.60094
-22.4003		-39.5101	-7.44629	-32.06381
-22.3515		-38.5132	-6.88171	-31.63149
-22.203			-39.1642	-8.19397	-30.97023
-22.0076		-38.7166	-8.37707	-30.33953
-21.8449		-38.0046	-7.85828	-30.14632
-21.6903		-36.6414	-9.8114		-26.83
-21.5926		-35.7259	-7.52258	-28.20332
-21.4034		-38.3708	-7.76672	-30.60408
-21.3159		-34.6273	-7.2937		-27.3336
-21.0942		-34.8307	-7.35474	-27.47596
-20.9782		-34.3628	-7.23267	-27.13013
-20.8704		-34.3628	-6.48498	-27.87782
-20.7096		-35.4411	-7.01904	-28.42206
-20.5672		-34.7493	-7.12585	-27.62345
-20.4614		-34.9528	-6.37817	-28.57463
-20.203			-33.2438	-5.88989	-27.35391
-20.1563		-34.2407	-5.38635	-28.85435
-19.95483		-34.139		-5.34058	-28.79842
-19.80225		-32.1859	-5.61523	-26.57067
-19.64559		-31.779		-4.37927	-27.39973
-19.51945		-30.9448	-2.68555	-28.25925
-19.43197		-26.9979	-3.2959		-23.702
-19.25293		-30.2938	-4.92859	-25.36521
-19.0861		-29.8665	-3.52478	-26.34172
-19.00269		-28.6865	-3.60107	-25.08543
-18.83586		-29.2969	-4.88281	-24.41409
-18.59985		-28.9103	-3.5553		-25.355
-18.52661		-28.5034	-4.08935	-24.41405
-18.36589		-29.8462	-4.22668	-25.61952
-18.21126		-28.3813	-3.35693	-25.02437
-18.09123		-28.5645	-4.18091	-24.38359
-17.88167		-28.9917	-2.97546	-26.01624
-17.84505		-29.5817	-3.78418	-25.79752
-17.59684		-27.4862	-4.50134	-22.98486
-17.50529		-26.5706	-3.00598	-23.56462
-17.34049		-25.533		-2.9602		-22.5728
-17.18791		-23.9258	-3.78418	-20.14162
-17.04346		-25.5737	-3.38745	-22.18625
-16.87663		-24.7803	-3.23486	-21.54544
-16.80339		-23.3968	-3.11279	-20.28401
-16.663			-23.5189	-4.19617	-19.32273
-16.51245		-22.8475	-3.66211	-19.18539
-16.309			-24.7599	-3.09753	-21.66237
-16.21541		-25.411		-2.54822	-22.86278
-16.06079		-22.3999	-3.26538	-19.13452
-15.92244		-22.1761	-3.05176	-19.12434
-15.80241		-22.7458	-3.90625	-18.83955
-15.65389		-22.5016	-3.479		-19.0226
-15.49316		-24.1089	-3.11279	-20.99611
-15.30192		-23.1934	-2.21252	-20.98088
-15.23275		-22.0133	-2.39563	-19.61767
-15.03947		-22.1558	-2.63977	-19.51603
-14.90519		-21.8302	-3.20435	-18.62585
-14.72412		-21.5047	-1.80054	-19.70416
-14.5634		-20.5688	-3.12805	-17.44075
-14.43115		-21.9523	-2.01416	-19.93814
-14.32739		-21.0368	-2.62451	-18.41229
-14.14836		-20.4875	-2.31934	-18.16816
-14.06087		-21.2199	-2.42615	-18.79375
-13.8798		-21.1995	-3.05176	-18.14774
-13.74756		-19.6126	-4.01306	-15.59954
-13.55428		-19.5923	-2.82288	-16.76942
-13.40373		-18.7581	-0.823975	-17.934125
-13.23893		-18.2292	-1.78528	-16.44392
-13.14534		-18.5547	-1.61743	-16.93727
-13.0131		-18.0664	-1.98364	-16.08276
-12.90731		-18.4733	-0.686645	-17.786655
-12.67741		-18.1885	-2.21252	-15.97598
-12.56144		-16.276		-2.27356	-14.00244
-12.46582		-18.0867	-1.4801		-16.6066
-12.33968		-15.8284	-1.11389	-14.71451
-12.15861		-16.744		-1.58691	-15.15709
-11.98364		-16.3981	-1.02234	-15.37576
-11.87785		-14.7705	-0.534058	-14.236442
-11.70288		-16.0929	-0.549316	-15.543584
-11.60929		-15.5233	-0.915527	-14.607773
-11.45264		-14.9536	-0.50354	-14.45006
-11.27563		-14.3229	-0.274658	-14.048242
-11.16577		-14.3433	0.808716	-15.152016
-11.02336		-13.4888	-0.396728	-13.092072
-10.950114		-12.3901	-0.0762939	-12.3138061
-10.675456		-11.4339	0.396728	-11.830628
-10.665283		-11.5763	0.671387	-12.247687
-10.413005		-10.6201	-1.09863	-9.52147
-10.250244		-11.2508	0.167847	-11.418647
-10.136312		-10.9253	0.38147		-11.30677
-10.00813802		-10.6201	0.839233	-11.459333
-9.867757		-10.437		0.900268	-11.337268
-9.635824		-10.5184	1.297		-11.8154
-9.493408		-9.88769	0.518799	-10.406489
-9.458822		-9.23665	2.39563		-11.63228
-9.289958		-9.41976	1.52588		-10.94564
-9.102783		-9.05355	1.75476		-10.80831
-8.94206		-8.4025		1.52588		-9.92838
-8.86475		-8.2194		2.04468		-10.26408
-8.68774		-7.91422	2.31934		-10.23356
-8.4904			-8.46354	2.65503		-11.11857
-8.33171		-7.34456	2.30408		-9.64864
-8.34595		-6.81559	2.80762		-9.62321
-8.06925		-4.88281	1.77002		-6.65283
-7.96143		-5.75765	2.89917		-8.65682
-7.81698		-4.84212	2.88391		-7.72603
-7.69897		-5.20833	2.42615		-7.63448
-7.55859		-4.21143	1.9989		-6.21033
-7.37956		-4.1097		3.63159		-7.74129
-7.20256		-5.00488	3.54004		-8.54492
-7.08455		-4.49626	3.02124		-7.5175
-6.97062		-3.68245	3.34167		-7.02412
-6.77734		-3.74349	3.15857		-6.90206
-6.66341		-2.82796	3.37219		-6.20015
-6.54338		-2.38037	3.18909		-5.56946
-6.37248		-1.42415	3.95203		-5.37618
-6.22803		-1.07829	3.20435		-4.28264
-6.03068		-0.386556	5.23376		-5.620316
-5.95744		-1.48519	3.82996		-5.31515
-5.80078		-0.244141	4.5929		-4.837041
-5.67261		-0.223796	4.28772		-4.511516
-5.52816		0.935872	4.50134		-3.565468
-5.40405		-0.0406901	4.5929		-4.6335901
-5.24129		0.834147	4.79126		-3.957113
-5.09888		0.996907	4.71497		-3.718063
-4.89136		0.915527	4.76074		-3.845213
-4.80794		1.91243		5.02014		-3.10771
-4.63704		2.21761		4.39453		-2.17692
-4.47225		0.834147	5.34058		-4.506433
-4.37866		2.13623		4.71497		-2.57874
-4.19556		3.19417		4.63867		-1.4445
-4.11011		1.70898		5.09644		-3.38746
-3.93107		3.0721		4.91333		-1.84123
-3.74797		3.03141		6.45447		-3.42306
-3.65845		4.96419		6.3324		-1.36821
-3.46924		5.3304		5.17273		0.15767
-3.3492			5.90006		6.22559		-0.32553
-3.18441		4.17073		5.96619		-1.79546
-3.08268		5.08626		7.2937		-2.20744
-2.93009		4.96419		7.00378		-2.03959
-2.74292		6.40869		6.54602		-0.13733
-2.66764		6.46973		6.22559		0.24414
-2.41536		7.8125		8.02612		-0.21362
-2.31364		6.57145		7.17163		-0.60018
-2.13867		7.83284		7.04956		0.78328
-2.05322		6.69352		6.37817		0.31535
-1.89046		8.26009		6.63757		1.62252
-1.68701		9.31803		6.13403		3.184
-1.59546		9.17562		6.80542		2.3702
-1.44694		8.4432		7.17163		1.27157
-1.33911		9.05355		7.94983		1.10372
-1.13973		9.48079		7.46155		2.01924
-1.04004		8.99251		7.2937		1.69881
-0.87321		9.82666		7.08008		2.74658
-0.802			10.2132		8.57544		1.63776
-0.64941		10.6812		8.3313		2.3499
-0.45207		11.8815		7.84302		4.03848
-0.30762		11.3525		8.60596		2.74654
-0.1652			11.6781		8.80432		2.87378
0.0199			11.0677		8.74329		2.32441
0.0789			12.5326		7.72095		4.81165
0.2478			12.3088		9.70459		2.60421
0.4736			12.8174		8.16345		4.65395
0.6201			13.0615		8.28552		4.77598
0.7361			13.9974		8.5907		5.4067
0.85			13.326		8.27026		5.05574
0.9823			14.6281		9.01794		5.61016
1.1796			12.4512		8.60596		3.84524
1.2752			12.797		9.8114		2.9856
1.4583			14.384		9.0332		5.3508
1.6353			15.2384		8.3313		6.9071
1.7757			15.1978		9.00268		6.19512
1.9283			15.5843		9.46045		6.12385
2.0361			15.7878		10.025		5.7628
2.1582			15.2588		9.53674		5.72206
2.3189			16.5609		11.0321		5.5288
2.443			16.7847		10.3149		6.4698
2.62			17.7002		9.90295		7.79725
2.734			17.8833		9.53674		8.34656
2.9578			18.5547		10.91		7.6447
3.0737			18.7174		10.0098		8.7076
3.2141			19.104		10.4523		8.6517
3.3443			19.694		10.498		9.196
3.505			19.5312		10.9711		8.5601
3.5925			19.7144		11.0474		8.667
3.7838			20.7316		11.8866		8.845
3.7695			19.8568		10.6201		9.2367
4.0116			20.3654		11.0474		9.318
4.15			19.7347		12.1613		7.5734
4.3209			20.5078		12.4207		8.0871
4.502			20.8537		12.2833		8.5704
4.6342			20.6299		12.1155		8.5144
4.7156			20.8944		11.5662		9.3282
4.919			22.5627		12.207		10.3557
5.0228			21.5861		12.8021		8.784
5.1632			21.5251		12.3596		9.1655
5.3646			21.8099		13.7787		8.0312
5.509			22.1354		13.2599		8.8755
5.6108			25.0041		12.7869		12.2172
5.7633			23.234		12.9089		10.3251
5.9058			24.943		13.9618		10.9812
6.0726			26.001		14.0686		11.9324
6.1947			24.6175		12.8632		11.7543
6.4327			26.4689		13.0157		13.4532
6.5243			26.2248		13.4888		12.736
6.6626			25.9399		12.7563		13.1836
6.7664			26.8962		14.1602		12.736
6.8945			26.3875		13.6108		12.7767
7.1346			27.0386		14.3127		12.7259
7.2221			27.0182		13.6414		13.3768
7.3787			26.4893		13.4125		13.0768
7.4805			26.6724		14.74		11.9324
7.6147			27.8117		13.7787		14.033
7.808			27.0996		14.3433		12.7563
7.9728			28.1372		15.4724		12.6648
8.0827			30.8634		15.8081		15.0553
8.278			31.6976		14.2822		17.4154
8.3716			31.4331		14.8926		16.5405
8.5547			30.9041		16.3574		14.5467
8.6584			32.0231		13.6719		18.3512
8.7358			31.311		13.5803		17.7307
8.9026			30.2124		14.4806		15.7318
9.0735			34.3018		13.855		20.4468
9.2078			33.1014		14.5721		18.5293
9.3705			32.9183		14.9536		17.9647
9.5333			33.5286		14.8315		18.6971
9.6798			33.1014		15.152		17.9494
9.8039			35.1766		15.7776		19.399
10.0195			34.2814		14.0991		20.1823
10.0256			34.4035		15.3961		19.0074
10.2535			34.9121		15.3198		19.5923
10.3776			35.3597		16.1896		19.1701
10.5607			34.9935		14.801		20.1925
10.6746			35.6242		14.389		21.2352
10.8191			37.7197		15.3198		22.3999
11.0185			37.2111		15.274		21.9371
11.165			38.3504		16.4032		21.9472
11.2606			39.0625		15.0604		24.0021
11.4315			39.1642		15.9912		23.173
11.582			38.9608		17.1814		21.7794
11.7041			39.5915		16.7847		22.8068
11.8363			40.3239		17.1967		23.1272
12.0154			38.3301		16.9678		21.3623
12.1415			39.0828		17.2272		21.8556
12.3022			39.3066		16.4947		22.8119
12.4691			41.2191		18.3411		22.878
12.5464			39.917		17.2272		22.6898
12.7336			40.1001		18.0817		22.0184
12.88			39.0421		18.158		20.8841
13.0408			39.1439		17.9291		21.2148
13.1242			42.3177		19.6075		22.7102
13.3012			44.2912		18.8904		25.4008
13.4334			43.6605		17.5476		26.1129
13.5128			44.4946		19.6686		24.826
13.6837			42.5008		17.5323		24.9685
13.8383			41.8905		20.0958		21.7947
13.9889			43.6198		20.0958		23.524
14.1536			42.6636		18.5242		24.1394
14.3103			44.7591		20.6909		24.0682
14.4364			43.4163		18.1274		25.2889
14.5524			45.0236		18.2953		26.7283
14.6663			45.2474		19.5465		25.7009
14.9512			45.7357		19.7754		25.9603
15.061			45.5322		20.0043		25.5279
15.2299			45.1864		21.1792		24.0072
15.3601			46.1629		21.4233		24.7396
15.3682			46.3257		20.2179		26.1078
15.6673			46.936		17.8223		29.1137
15.7345			47.8312		18.7225		29.1087
15.9338			46.2443		18.631		27.6133
16.0539			46.4681		18.753		27.7151
16.1963			48.7671		19.7296		29.0375
16.3407			49.7436		18.8751		30.8685
16.5157			51.1271		20.2026		30.9245
16.6296			52.3682		20.0958		32.2724
16.7965			49.3367		19.6838		29.6529
16.9124			50.2523		19.8669		30.3854
17.0671			51.3509		21.6827		29.6682
17.1688			52.0223		19.2413		32.781
17.3031			52.3682		20.3247		32.0435
17.4333			54.5654		20.05		34.5154
17.6143			55.8268		18.8141		37.0127
17.8097			54.1178		18.5852		35.5326
17.9358			53.5278		18.8904		34.6374
18.0172			52.4902		19.928		32.5622
18.2593			51.2492		21.5759		29.6733
18.2267			54.2196		20.6451		33.5745
18.4993			54.1178		20.5383		33.5795
18.715			55.7861		20.4315		35.3546
18.7984			55.9489		21.3928		34.5561
18.9246			55.2775		20.6451		34.6324
19.0161			56.4575		22.8271		33.6304
19.2521			57.0679		22.9187		34.1492
19.3355			56.3558		21.4539		34.9019
19.5715			57.2713		21.759		35.5123
19.6305			55.8879		22.7051		33.1828
19.7689			55.7251		22.7356		32.9895
19.9967			56.132		21.7743		34.3577
20.0964			54.9927		22.3389		32.6538
20.2795			56.9661		21.8506		35.1155
20.4097			56.722		20.7367		35.9853
20.5847			57.8206		20.0195		37.8011
20.6885			58.7972		20.4163		38.3809
20.7963			59.0617		19.577		39.4847
20.9957			57.5155		21.0571		36.4584
21.0893			56.5186		20.9045		35.6141
21.3029			59.6517		19.989		39.6627
21.4128			60.7503		19.8364		40.9139
21.5979			61.849		21.0266		40.8224
21.7261			63.8021		21.0266		42.7755
21.8644			64.9007		20.9961		43.9046
21.9499			63.3748		21.4386		41.9362
22.074			63.2731		21.8353		41.4378
22.2306			63.4562		21.225		42.2312
22.4483			60.4451		21.5454		38.8997
22.5073			59.6517		22.2626		37.3891
22.6762			60.262		24.2767		35.9853
22.7901			57.902		24.0784		33.8236
22.9997			58.8582		24.765		34.0932
23.0851			60.852		24.7192		36.1328
23.2926			60.262		24.3072		35.9548
23.3842			59.3465		22.7356		36.6109
23.5673			59.7534		20.1874		39.566
23.7402			60.0789		21.4691		38.6098
23.846			61.4217		21.8658		39.5559
24.0047			63.1917		21.8964		41.2953
24.1471			66.1418		22.8424		43.2994
24.3079			67.2607		23.3307		43.93
24.4462			67.0776		22.0795		44.9981
24.5846			65.4093		23.1781		42.2312
24.729			67.0573		22.5372		44.5201
24.9223			65.8569		22.644		43.2129
25.0586			68.0949		21.8048		46.2901
25.1359			66.1418		23.1323		43.0095
25.3495			67.3625		23.819		43.5435
25.38			66.7928		25.0854		41.7074
25.6099			68.4814		26.0468		42.4346
25.7971			68.3594		26.001		42.3584
25.907			69.9666		25.8026		44.164
26.0006			68.1152		26.123		41.9922
26.1552			67.5252		25.1007		42.4245
26.3546			65.9993		25.0092		40.9901
26.4319			66.5283		27.7405		38.7878
26.6394			67.8507		27.4658		40.3849
26.735			66.6911		28.1525		38.5386
26.8754			68.4814		27.3437		41.1377
27.1053			72.7336		28.4271		44.3065
27.1867			70.2515		28.8544		41.3971
27.3393			70.4956		28.1525		42.3431
27.4776			70.8618		27.7252		43.1366
27.561			71.4722		27.6642		43.808
27.7991			67.0369		28.8849		38.152
27.8947			71.6349		29.007		42.6279
28.09			72.0215		30.6549		41.3666
28.2161			73.1811		29.9072		43.2739
28.3586			71.4925		29.5258		41.9667
28.5193			73.8322		31.2958		42.5364
28.5824			74.4832		32.3639		42.1193
28.8224			74.9308		30.8685		44.0623
28.9404			76.0701		32.3029		43.7672
29.1296			78.6946		31.6925		47.0021
29.2314			78.2064		32.6538		45.5526
29.3331			77.2298		32.3334		44.8964
29.4816			73.8525		32.0129		41.8396
29.6932			77.1891		33.1268		44.0623
29.8031			78.1453		32.074		46.0713
29.9007			78.3284		32.7759		45.5525
30.1286			78.4505		33.0658		45.3847
30.1693			80.6885		30.5786		50.1099
30.3971			79.4881		29.3884		50.0997
30.507			81.7057		28.5339		53.1718
30.6148			82.6823		30.9143		51.768
30.7471			83.0688		29.8004		53.2684
30.9281			81.7668		30.5328		51.234
31.1072			81.4412		31.6925		49.7487
31.2415			83.4147		31.4331		51.9816
31.3656			82.3161		30.3192		51.9969
31.4754			83.903		30.5634		53.3396
31.6484			82.3771		32.2113		50.1658
31.7806			81.1768		31.4636		49.7132
31.921			84.6558		31.3721		53.2837
32.0125			83.0485		30.777		52.2715
32.2201			83.5164		30.1056		53.4108
32.393			85.2458		30.5328		54.713
32.5069			85.1033		31.7383		53.365
32.7083			84.0251		29.7852		54.2399
32.749			86.0799		30.9601		55.1198
32.9443			85.8358		29.7394		56.0964
33.1132			82.6823		28.8696		53.8127
33.2373			83.8826		30.4108		53.4718
33.4245			87.7279		29.7852		57.9427
33.4896			89.0299		30.3802		58.6497
33.7561			89.1724		29.9225		59.2499
33.8416			88.1348		28.2593		59.8755
34.0552			86.3444		29.5715		56.7729
34.1711			86.202		28.5339		57.6681
34.2749			87.9517		27.9541		59.9976
34.4824			85.4492		25.9552		59.494
34.6269			83.8419		27.5879		56.254
34.7286			86.4868		27.2827		59.2041
34.8303			85.3068		28.0457		57.2611
35.0236			87.972		30.014		57.958
35.1274			88.1754		29.8004		58.375
35.2799			87.5651		28.0914		59.4737
35.4814			90.922		28.7781		62.1439
35.6401			93.2617		30.0598		63.2019
35.7743			92.57		29.3274		63.2426
35.8354			91.6544		28.5492		63.1052
36.0347			93.2617		29.8157		63.446
36.1995			91.7765		27.3285		64.448
36.3684			93.689		28.6407		65.0483
36.464			92.2445		27.7405		64.504
36.5393			93.6279		29.4037		64.2242
36.7224			92.5089		30.5023		62.0066
36.8628			93.8314		30.5939		63.2375
36.9788			96.3542		30.9753		65.3789
37.111			95.3979		33.3252		62.0727
37.3267			95.1538		33.2336		61.9202
37.4772			97.2086		33.5541		63.6545
37.583			98.9787		32.6233		66.3554
37.7132			99.4059		33.432		65.9739
37.8658			99.1618		35.6445		63.5173
38.055			98.5107		34.4849		64.0258
38.2279			99.5483		34.7595		64.7888
38.2544			101.379		34.4849		66.8941
38.4985			101.786		33.2642		68.5218
38.5677			101.705		34.5306		67.1744
38.7813			100.301		34.0576		66.2434
38.8831			105.937		33.4778		72.4592
39.056			102.987		34.317		68.67
39.1801			105.103		34.5612		70.5418
39.3001			104.797		34.5459		70.2511
39.4853			105.326		36.1786		69.1474
39.6012			102.071		36.5906		65.4804
39.7742			106.018		33.9203		72.0977
39.9105			100.789		33.3405		67.4485
40.0366			102.722		33.3557		69.3663
40.1648			106.364		33.8745		72.4895
40.3174			106.466		33.2947		73.1713
40.4313			103.861		32.6691		71.1919
40.6429			103.149		32.2571		70.8919
40.7589			105.611		33.7524		71.8586
40.9318			102.152		33.8745		68.2775
41.0681			104.248		34.5154		69.7326
41.2594			102.681		33.3405		69.3405
41.3265			100.972		34.1797		66.7923
41.5299			104.37		34.2102		70.1598
41.6724			100.382		35.3699		65.0121
41.8148			99.528		37.323		62.205
41.9145			100.159		36.5448		63.6142
42.0589			101.929		35.6293		66.2997
42.24			103.251		35.553		67.698
42.3336			106.262		34.0729		72.1891
42.535			105.591		33.432		72.159
42.6835			107.503		33.5083		73.9947
42.7873			108.683		33.9355		74.7475
42.9195			109.538		33.7219		75.8161
43.1657			105.896		36.026		69.87
43.1392			104.818		36.5906		68.2274
43.3773			106.099		38.0707		68.0283
43.4607			112		38.9404		73.0596
43.6825			109.172		39.8407		69.3313
43.8554			113.607		39.1693		74.4377
44.008			115.682		39.0625		76.6195
44.069			115.255		39.5355		75.7195
44.2379			118.225		39.093		79.132
44.3762			116.109		40.0238		76.0852
44.539			119.405		40.1154		79.2896
44.6916			115.316		39.1083		76.2077
44.8116			119.609		42.6788		76.9302
45.0028			117.716		41.9617		75.7543
45.1778			119.67		42.8314		76.8386
45.2897			120.626		44.22		76.406
45.3975			120.829		44.7082		76.1208
45.54			117.818		43.3197		74.4983
45.6966			119.751		41.3818		78.3692
45.8818			117.9		41.8091		76.0909
45.9774			120.158		43.4265		76.7315
46.1523			124.329		40.4205		83.9085
46.2358			125.956		41.4276		84.5284
46.3782			125.834		41.5344		84.2996
46.5572			125.936		42.3431		83.5929
46.7647			122.986		44.281		78.705
46.8278			121.338		43.1519		78.1861
46.9946			122.721		42.0532		80.6678
47.1248			123.23		43.396		79.834
47.192			124.552		44.0063		80.5457
47.4178			122.274		44.6625		77.6115
47.5602			121.48		46.0663		75.4137
47.7393			120.931		46.4478		74.4832
47.8918			121.745		47.1039		74.6411
47.9712			123.047		47.4701		75.5769
48.1868			120.666		45.0745		75.5915
48.2601			121.847		44.3115		77.5355
48.4839			120.239		43.6096		76.6294
48.6202			119.222		44.8608		74.3612
48.6772			119.08		44.3268		74.7532
48.8542			120.89		43.8538		77.0362
49.0047			120.26		43.6859		76.5741
49.1654			119.303		43.5638		75.7392
49.3282			120.666		45.1508		75.5152
49.4645			123.678		44.6167		79.0613
49.609			122.925		45.6085		77.3165
49.6761			128.52		47.1802		81.3398
49.8368			127.767		46.2494		81.5176
49.9935			124.451		48.7061		75.7449
50.1685			127.034		47.1649		79.8691
50.3027			124.39		44.8914		79.4986
50.4594			121.663		47.0123		74.6507
50.5937			124.41		46.9971		77.4129
50.73			123.779		47.6379		76.1411
50.9355			122.437		46.3867		76.0503
51.0677			126.261		45.1508		81.1102
51.1816			124.308		45.517		78.791
51.3057			125.712		44.3726		81.3394
51.4461			125.061		44.0674		80.9936
51.6842			124.98		45.2118		79.7682
51.7757			122.355		45.2881		77.0669
51.9059			121.44		46.5546		74.8854
52.0809			122.437		47.0276		75.4094
52.2131			125.203		47.9279		77.2751
52.3718			124.186		46.3104		77.8756
52.4715			123.271		47.6532		75.6178
52.5875			125.427		49.3927		76.0343
52.7909			126.16		49.3164		76.8436
52.8988			127.991		48.6603		79.3307
53.0961			135.05		50.293		84.757
53.1917			130.839		51.0254		79.8136
53.4155			127.055		51.4832		75.5718
53.442			124.166		50.3387		73.8273
53.6943			128.886		51.6357		77.2503
53.796			134.115		51.0406		83.0744
53.9364			130.473		51.4069		79.0661
54.0259			125.285		52.0935		73.1915
54.2782			124.939		50.003		74.936
54.3229			127.97		47.9584		80.0116
54.5406			130.005		51.4832		78.5218
54.6423			128.805		50.415		78.39
54.7603			133.586		48.9655		84.6205
54.9353			135.213		50.4303		84.7827
55.1143			136.637		50.9338		85.7032
55.2364			132.06		54.2755		77.7845
55.3748			129.232		54.0466		75.1854
55.5029			130.33		56.0455		74.2845
55.6982			135.173		51.8036		83.3694
55.8529			132.161		49.3622		82.7988
55.9546			132.812		50.1404		82.6716
56.0258			129.659		49.4232		80.2358
56.2048			131.816		48.8129		83.0031
56.4225			132.446		50.3845		82.0615
56.512			133.85		50.705		83.145
56.7175			133.484		52.4902		80.9938
56.7989			136.861		52.8412		84.0198
56.984			136.332		52.1698		84.1622
57.1285			132.609		54.7485		77.8605
57.275			134.806		56.3812		78.4248
57.4642			134.928		53.4821		81.4459
57.5171			138.611		54.6722		83.9388
57.7063			139.628		57.6782		81.9498
57.8833			139.893		54.3823		85.5107
58.0216			137.065		55.4047		81.6603
58.1742			139.913		52.7954		87.1176
58.2861			138.875		55.1147		83.7603
58.4326			139.445		56.1981		83.2469
58.5262			139.648		56.1523		83.4957
58.6503			143.758		59.1278		84.6302
58.8151			147.868		58.1665		89.7015
59.0247			148.926		56.3049		92.6211
59.161			151.021		56.2897		94.7313
59.2993			155.924		57.4341		98.4899
59.4295			150.859		57.9224		92.9366
59.6004			149.475		56.7322		92.7428
59.7835			147.685		57.4036		90.2814
59.9219			145.874		60.1349		85.7391
59.9524			148.499		59.082		89.417
60.2169			153.219		57.8766		95.3424
60.2616			151.082		59.5703		91.5117
60.4936			151.042		59.6161		91.4259
60.5526			152.201		58.67		93.531
60.7947			149.719		62.0117		87.7073
60.9005			149.211		64.0106		85.2004
61.0388			151.611		60.9894		90.6216
61.169			155.904		59.0363		96.8677
61.287			156.779		58.7769		98.0021
61.4539			155.294		59.0668		96.2272
61.6593			155.741		60.3485		95.3925
61.6349			155.701		62.2711		93.4299
61.8506			152.974		61.3556		91.6184
62.0357			157.878		60.1807		97.6973
62.2005			153.687		61.4319		92.2551
62.2961			155.904		62.9883		92.9157
62.5016			152.344		63.4918		88.8522
62.6339			151.53		61.9202		89.6098
62.7865			147.237		60.0891		87.1479
62.9106			149.109		62.5458		86.5632
63.1079			155.172		62.6678		92.5042
63.2117			153.056		60.3943		92.6617
63.2808			153.341		61.7676		91.5734
63.468			148.783		62.7899		85.9931
63.6145			151.326		62.1033		89.2227
63.7651			151.204		62.8357		88.3683
63.9237			152.181		61.0351		91.1459
64.0763			150.411		61.2183		89.1927
64.233			152.344		59.9213		92.4227
64.3693			151.835		58.8226		93.0124
64.469			149.109		61.0657		88.0433
64.6948			150.879		60.0586		90.8204
64.8006			151.916		63.2324		88.6836
64.9369			158.447		64.8498		93.5972
65.1261			153.259		65.0482		88.2108
65.2523			154.846		67.6422		87.2038
65.3784			151.937		63.1866		88.7504
65.4781			154.378		67.7032		86.6748
65.647			154.867		66.391		88.476
65.769			156.25		65.9027		90.3473
65.942			156.982		65.5975		91.3845
66.0315			154.744		65.2771		89.4669
66.2634			160.543		66.864		93.679
66.3468			163.696		68.7408		94.9552
66.5157			158.529		69.0308		89.4982
66.7069			154.338		70.1446		84.1934
66.8331			159.627		69.397		90.23
66.9755			155.68		68.1305		87.5495
67.1281			160.645		69.2291		91.4159
67.2196			165.466		69.2749		96.1911
67.3804			166.28		72.9217		93.3583
67.5024			166.036		69.107		96.929
67.6815			167.765		67.688		100.077
67.8036			166.667		69.7479		96.9191
67.9643			170.715		67.8558		102.8592
68.1067			170.186		70.9991		99.1869
68.2674			171.143		70.9228		100.2202
68.3773			169.189		68.4357		100.7533
68.5034			166.117		69.519		96.598
68.7415			166.097		68.9392		97.1578
68.8493			163.778		72.9675		90.8105
68.9673			165.69		75.943		89.747
69.0873			164.042		74.5544		89.4876
69.244			162.943		70.7397		92.2033
69.3905			161.58		72.8302		88.7498
69.5064			165.69		73.9593		91.7307
69.7567			169.637		75.0885		94.5485
69.8136			168.416		75.4852		92.9308
70.0639			168.945		77.0874		91.8576
70.1697			172.831		78.7048		94.1262
70.3568			171.509		73.5168		97.9922
70.4545			167.582		75.7446		91.8374
70.6396			167.806		76.5533		91.2527
70.7495			170.125		80.5664		89.5586
70.7617			173.645		77.1942		96.4508
71.0832			171.773		75.6836		96.0894
71.0649			185.018		80.1849		104.8331
71.3212			178.426		80.7953		97.6307
71.4901			177.287		81.9092		95.3778
71.6223			175.456		83.3282		92.1278
71.72			170.715		84.8389		85.8761
71.9071			167.867		83.3893		84.4777
71.9743			168.355		84.137		84.218
72.2123			169.617		83.8318		85.7852
72.3263			171.672		84.8694		86.8026
72.4972			179.565		85.6781		93.8869
72.5867			177.124		79.0405		98.0835
72.786			179.199		80.2917		98.9073
72.8532			179.403		79.7882		99.6148
73.0098			179.016		74.9359		104.0801
73.1543			178.162		76.2482		101.9138
73.3659			171.855		78.0182		93.8368
73.4778			178.263		80.2002		98.0628
73.6426			177.775		80.6885		97.0865
73.724			178.385		79.5441		98.8409
73.8867			175.802		83.9538		91.8482
73.9762			179.179		82.4737		96.7053
74.2021			175.68		82.8247		92.8553
74.3567			173.258		84.9152		88.3428
74.4808			174.398		82.3364		92.0616
74.6171			173.523		80.8563		92.6667
74.6883			180.033		80.9936		99.0394
74.9386			189.311		82.9773		106.3337
75.022			187.093		80.8868		106.2062
75.2051			187.256		81.2225		106.0335
75.3495			188.192		85.9375		102.2545
75.4899			188.517		82.9773		105.5397
75.6222			185.486		80.1849		105.3011
75.8215			193.807		79.0863		114.7207
75.9151			192.647		82.7026		109.9444
76.0718			191.406		83.3435		108.0625
76.0982			187.032		82.9773		104.0547
76.4095			186.686		84.61		102.076
76.5295			186.503		83.8013		102.7017
76.6618			183.94		85.5102		98.4298
76.7676			192.79		84.8236		107.9664
76.9344			196.187		84.4421		111.7449
77.0199			190.511		82.1228		108.3882
77.2253			195.984		83.2672		112.7168
77.3576			191.711		85.8002		105.9108
77.498			187.663		87.0209		100.6421
77.6526			189.351		85.1135		104.2375
77.8337			187.907		85.6628		102.2442
77.9476			190.674		88.2111		102.4629
78.149			191.04		86.5173		104.5227
78.2284			190.776		87.7533		103.0227
78.4298			186.422		89.7064		96.7156
78.5315			184.652		90.744		93.908
78.6312			192.159		94.1315		98.0275
78.7349			187.337		93.7805		93.5565
78.9567			196.35		95.5658		100.7842
79.1276			191.549		94.0399		97.5091
79.211			189.677		92.4683		97.2087
79.3758			186.015		92.5903		93.4247
79.5508			186.259		93.6737		92.5853
79.6769			190.877		91.0034		99.8736
79.8458			192.037		93.6432		98.3938
79.917			194.132		91.8426		102.2894
80.1164			197.042		93.9331		103.1089
80.2791			199.137		95.5353		103.6017
80.4338			195.129		95.9473		99.1817
80.5701			201.518		97.0001		104.5179
80.6616			199.219		99.884		99.335
80.8468			196.187		101.089		95.098
81.0116			196.696		101.685		95.011
81.1682			191.467		101.974		89.493
81.3371			197.408		100.174		97.234
81.4571			197.428		103.058		94.37
81.5304			201.497		103.226		98.271
81.7053			198.059		104.645		93.414
81.8498			200.053		104.126		95.927
82.0593			194.804		107.574		87.23
82.1244			193.339		106.43		86.909
82.3503			192.952		105.713		87.239
82.3869			195.272		112.076		83.196
82.5802			194.316		106.125		88.191
82.747			195.211		108.032		87.179
82.9016			197.021		106.567		90.454
82.9871			195.882		112.564		83.318
83.1742			195.76		108.109		87.651
83.276			198.079		105.957		92.122
83.4224			202.799		105.53		97.269
83.5465			204.468		103.851		100.617
83.7113			206.38		99.8993		106.4807
83.866			214.762		102.051		112.711
83.9819			212.362		102.524		109.838
84.2383			215.841		101.273		114.568
84.2423			212.728		105.301		107.427
84.4885			210.632		104.98		105.652
84.5435			214.539		106.323		108.216
84.751			215.698		106.766		108.932
84.9259			214.884		108.826		106.058
85.105			211.67		106.705		104.965
85.2474			210.063		106.857		103.206
85.3267			209.554		106.491		103.063
85.4915			208.537		106.308		102.229
85.5831			206.136		108.078		98.058
85.7764			206.156		103.79		102.366
85.8781			207.865		102.615		105.25
86.0002			211.792		103.073		108.719
86.1039			217.061		104.736		112.325
86.3236			211.568		109.985		101.583
86.5068			216.207		106.567		109.64
86.6024			217.773		113.022		104.751
86.8363			213.175		113.571		99.604
86.9279			209.513		112.793		96.72
87.1151			215.21		116.241		98.969
87.1619			207.275		114.868		92.407
87.3816			216.105		113.785		102.32
87.4772			212.097		113.953		98.144
87.6298			208.537		112.823		95.714
87.7844			220.418		109.802		110.616
87.937			214.844		110.214		104.63
88.053			211.894		107.605		104.289
88.2951			216.431		110.703		105.728
88.3907			219.279		111.618		107.661
88.5128			213.989		110.367		103.622
88.5128			213.989		110.367		103.622
88.8159			210.286		113.831		96.455
88.9583			211.1		116.684		94.416
89.0723			212.565		117.813		94.752
89.3001			211.731		116.882		94.849
89.4181			215.027		116.669		98.358
89.6012			213.745		115.555		98.19
89.6765			213.399		119.263		94.136
89.8067			210.551		115.799		94.752
89.9959			211.934		115.646		96.288
90.09			218.058		111.359		106.699
90.205			222.392		114.639		107.753
90.452			224.263		118.774		105.489
90.519			229.94		115.555		114.385
90.531			232.93		114.41		118.52
90.865			236.898		116.699		120.199
90.997			231.344		119.507		111.837
91.101			228.556		121.674		106.882
91.274			231.588		123.535		108.053
91.361			241.17		124.054		117.116
91.573			244.568		127.838		116.73
91.713			237.122		124.039		113.083
91.896			240.051		126.19		113.861
91.986			237.427		128.189		109.238
92.108			238.18		123.779		114.401
92.224			242.269		126.053		116.216
92.315			239.461		134.491		104.97
92.563			233.968		131.638		102.33
92.736			235.962		131.393		104.569
92.846			229.696		132.416		97.28
93.019			229.045		126.724		102.321
93.111			228.17		127.304		100.866
93.282			239.624		133.697		105.927
93.465			241.72		133.942		107.778
93.569			242.554		138.26		104.294
93.689			241.374		131.927		109.447
93.927			244.364		130.753		113.611
93.99			245.321		133.286		112.035
94.203			236.104		136.414		99.69
94.289			236.694		130.936		105.758
94.443			240.885		132.4		108.485
94.559			249.227		133.331		115.896
94.726			245.89		132.202		113.688
94.919			237.996		129.99		108.006
94.991			242.92		131.973		110.947
95.16			242.432		133.224		109.208
95.332			250.305		131.958		118.347
95.438			250.081		129.562		120.519
95.554			258.626		127.304		131.322
95.699			251.851		128.51		123.341
95.918			251.668		130.63		121.038
96.047			253.092		125.702		127.39
96.146			250.692		132.126		118.566
96.372			257.711		135.559		122.152
96.464			253.418		138.962		114.456
96.571			254.333		139.114		115.219
96.775			252.828		137.436		115.392
96.868			249.044		139.389		109.655
97.078			253.031		146.393		106.638
97.192			244.832		145.981		98.851
97.322			246.338		146.835		99.503
97.526			242.798		146.469		96.329
97.595			252.747		145.813		106.934
97.776			254.496		143.585		110.911
97.874			253.418		139.13		114.288
97.994			253.825		145.569		108.256
98.132			255.412		147.385		108.027
98.335			250.651		144.379		106.272
98.496			253.927		146.851		107.076
98.653			255.534		145.95		109.584
98.748			256.266		148.285		107.981
98.964			262.614		142.014		120.6
99.086			259.725		141.846		117.879
99.214			267.008		151.108		115.9
99.399			264.567		152.588		111.979
99.536			264.567		152.878		111.689
99.67			261.637		153.732		107.905
99.806			258.789		152.481		106.308
99.959			259.257		153.946		105.311
100.077			258.911		158.829		100.082
100.219			263.245		162.933		100.312
100.299			271.647		157.959		113.688
100.433			283.081		159.317		123.764
100.63			277.852		161.774		116.078
100.822			280.07		162.506		117.564
100.97			275.553		164.474		111.079
101.104			278.646		169.8		108.846
101.235			273.682		164.795		108.887
101.422			278.849		164.825		114.024
101.532			279.378		160.385		118.993
101.725			277.425		164.856		112.569
101.859			273.58		161.331		112.249
101.953			276.164		168.9		107.264
102.083			273.214		171.539		101.675
102.276			269.552		167.831		101.721
102.398			267.802		175.934		91.868
102.553			273.966		175.674		98.292
102.724			282.735		184.174		98.561
102.844			285.767		177.124		108.643
102.976			283.061		173.157		109.904
103.147			289.53		176.773		112.757
103.287			286.723		179.55		107.173
103.42			283.264		182.922		100.342
103.55			292.928		182.755		110.173
103.751			290.71		178.299		112.411
103.9			297.567		173.355		124.212
104.016			290.548		172.455		118.093
104.138			294.698		176.285		118.413
104.286			300.171		175.766		124.405
104.386			300.435		180.466		119.969
104.53			310.872		184.387		126.485
104.787			307.515		187.454		120.061
104.795			308.472		182.465		126.007
105.013			311.483		190.247		121.236
105.122			301.697		186.935		114.762
105.291			301.941		177.933		124.008
105.411			300.252		178.864		121.388
105.544			299.215		181.641		117.574
105.739			304.097		184.402		119.695
105.912			309.916		192.52		117.396
106.04			308.655		190.414		118.241
106.168			298.991		192.001		106.99
106.323			301.31		184.86		116.45
106.461			311.259		189.011		122.248
106.606			308.736		181.671		127.065
106.758			309.143		189.682		119.461
106.903			303.202		200.821		102.381
107.051			315.653		189.423		126.23
107.137			319.193		188.354		130.839
107.369			313.436		196.289		117.147
107.389			313.436		191.116		122.32
107.56			313.7		192.368		121.332
107.729			324.178		197.968		126.21
107.902			328.267		196.625		131.642
108.087			334.554		202.911		131.643
108.152			329.122		202.728		126.394
108.374			326.823		204.773		122.05
108.441			333.109		207.275		125.834
108.648			319.682		200.699		118.983
108.73			333.333		206.543		126.79
108.953			327.718		205.444		122.274
109.039			329.569		204.88		124.689
109.246			338.359		207.703		130.656
109.35			335.042		214.432		120.61
109.468			331.197		208.679		122.518
109.647			332.336		205.399		126.937
109.759			337.138		208.42		128.718
109.973			344.788		208.267		136.521
110.076			337.911		215.332		122.579
110.203			338.196		216.888		121.308
110.282			337.158		214.935		122.223
110.546			341.044		223.343		117.701
110.622			346.029		226.288		119.741
110.807			337.687		221.664		116.023
110.941			340.088		231.293		108.795
111.122			330.973		234.924		96.049
111.216			335.856		226.7		109.156
111.37			338.949		231.659		107.29
111.527			341.349		240.524		100.825
111.619			342		237.427		104.573
111.72			347.066		237.427		109.639
111.995			352.905		226.822		126.083
112.101			351.298		232.422		118.876
112.223			351.237		222.351		128.886
112.396			339.803		226.15		113.653
112.536			355.916		230.255		125.661
112.679			351.257		226.456		124.801
112.878			343.709		230.637		113.072
112.915			339.152		229.965		109.187
113.13			340.535		230.56		109.975
113.228			336.894		229.797		107.097
113.415			337.769		231.628		106.141
113.572			347.717		235.413		112.304
113.706			348.328		238.296		110.032
113.863			361.613		243.942		117.671
113.952			355.876		243.957		111.919
114.056			352.844		249.741		103.103
114.241			352.478		252.594		99.884
114.424			353.739		257.034		96.705
114.569			348.999		254.028		94.971
114.711			359.904		247.04		112.864
114.843			358.358		250.549		107.809
115.008			349.263		265.243		84.02
115.138			357.422		261.047		96.375
115.193			365.051		268.982		96.069
115.472			371.846		271.194		100.652
115.547			368.083		274.063		94.02
115.747			366.15		262.588		103.562
115.842			379.049		263.29		115.759
115.97			390.442		262.558		127.884
116.117			398.295		262.39		135.905
116.298			383.809		264.557		119.252
116.345			398.804		271.088		127.716
116.524			383.891		264.618		119.273
116.762			388.468		265.366		123.102
116.86			375.712		269.287		106.425
116.99			372.213		265.64		106.573
117.195			386.943		268.524		118.419
117.321			391.602		273.376		118.226
117.441			388.224		273.071		115.153
117.612			392.598		273.972		118.626
117.785			394.165		272.232		121.933
117.848			391.296		276.55		114.746
118.044			407.308		274.246		133.062
118.119			390.36		271.515		118.845
118.261			400.797		271.042		129.755
118.406			401.306		276.291		125.015
118.566			413.31		280.716		132.594
118.735			410.095		287.811		122.284
118.912			400.513		279.282		121.231
119.089			412.415		285.339		127.076
119.144			414.978		282.181		132.797
119.315			423.279		295.502		127.777
119.519			426.717		289.978		136.739
119.517			427.043		286.453		140.59
119.722			425.802		287.186		138.616
119.846			428.406		288.376		140.03
120.042			433.228		296.295		136.933
120.202			436.279		290.421		145.858
120.391			441.081		299.087		141.994
120.467			439.555		299.667		139.888
120.66			437.398		304.764		132.634
120.802			434.102		298.141		135.961
120.924			441.711		299.988		141.723
121.038			445.353		307.77		137.583
121.179			444.661		311.92		132.741
121.323			442.078		306		136.078
121.517			434.245		313.766		120.479
121.602			440.45		313.08		127.37
121.848			430.949		308.838		122.111
121.932			440.898		308.777		132.121
122.037			449.951		316.711		133.24
122.192			466.756		304.962		161.794
122.357			464.152		316.162		147.99
122.487			465.719		315.491		150.228
122.648			460.653		317.001		143.652
122.806			468.811		321.869		146.942
122.971			475.016		327.591		147.425
123.144			464.925		329.33		135.595
123.299			467.041		331.543		135.498
123.37			465.047		324.936		140.111
123.557			473.246		330.353		142.893
123.726			476.786		331.314		145.472
123.767			474.406		342.255		132.151
123.964			477.254		344.421		132.833
124.074			474.935		338.638		136.297
124.302			474.141		336.746		137.395
124.41			476.135		341.064		135.071
124.511			481.689		339.661		142.028
124.633			494.893		355.27		139.623
124.808			483.439		348.007		135.432
124.989			472.087		348.48		123.607
125.15			467.021		348.923		118.098
125.266			465.82		345.627		120.193
125.343			472.819		346.542		126.277
125.529			478.149		352.89		125.259
125.697			476.501		360.687		115.814
125.807			482.747		357.101		125.646
126.047			489.237		368.454		120.783
126.192			486.043		361.725		124.318
126.247			484.863		360.702		124.161
126.446			484.09		368.652		115.438
126.491			485.128		364.868		120.26
126.696			490.499		371.094		119.405
126.882			497.681		370.468		127.213
127.008			494.019		367.142		126.877
127.152			485.596		371.384		114.212
127.315			481.934		371.872		110.062
127.437			486.755		370.026		116.729
127.524			497.559		375		122.559
127.75			502.258		379.257		123.001
127.86			498.474		374.481		123.993
127.996			514.425		372.482		141.943
128.167			502.116		376.511		125.605
128.324			513.489		374.847		138.642
128.505			498.25		382.614		115.636
128.597			510.905		394.546		116.359
128.729			504.903		393.951		110.952
128.863			509.562		396.027		113.535
129.063			519.389		388.382		131.007
129.144			514.791		409.378		105.413
129.284			521.322		401.428		119.894
129.427			521.444		410.324		111.12
129.547			529.846		406.738		123.108
129.75			542.399		404.572		137.827
129.85			530.355		413.712		116.643
130.053			530.924		406.479		124.445
130.155			535.644		403.076		132.568
130.31			523.661		415.787		107.874
130.476			531.84		419.891		111.949
130.623			529.053		419.968		109.085
130.759			525.899		410.583		115.316
130.944			533.081		412.064		121.017
130.997			532.613		413.589		119.024
131.203			544.678		419.586		125.092
131.319			542.318		410.248		132.07
131.482			553.731		420.258		133.473
131.683			555.684		421.02		134.664
131.799			556.62		411.316		145.304
131.917			566.162		408.524		157.638
132.1			567.118		419.815		147.303
132.2			560.323		421.6		138.723
132.356			568.135		429.321		138.814
132.513			573.059		427.78		145.279
132.641			570.557		431.015		139.542
132.771			569.417		433.624		135.793
132.981			586.649		421.875		164.774
133.095			586.853		432.449		154.404
133.166			566.691		431.168		135.523
133.3			575.378		438.98		136.398
133.471			560.893		434.647		126.246
133.707			582.235		442.337		139.898
133.787			576.151		451.553		124.598
133.905			588.582		450.378		138.204
133.925			585.042		453.4		131.642
134.189			570.719		444.946		125.773
134.326			570.516		451.706		118.81
134.497			574.239		448.807		125.432
134.674			582.052		448.318		133.734
134.763			582.458		451.157		131.301
134.967			593.119		447.54		145.579
135.129			574.361		440.186		134.175
135.241			586.894		455.154		131.74
135.396			591.064		464.188		126.876
135.52			591.736		466.827		124.909
135.685			594.238		458.42		135.818
135.817			591.98		465.515		126.465
136.016			595.662		470.459		125.203
136.082			587.28		468.506		118.774
136.299			592.997		470.154		122.843
136.379			602.865		483.841		119.024
136.499			611.999		484.1		127.899
136.706			617.716		483.841		133.875
136.853			622.192		494.827		127.365
136.977			628.113		487.823		140.29
137.162			625.529		498.138		127.391
137.203			646.891		482.315		164.576
137.428			638.55		489.227		149.323
137.512			626.343		491.562		134.781
137.65			630.574		496.78		133.794
137.904			640.788		498.093		142.695
137.915			627.401		503.891		123.51
138.094			631.571		507.736		123.835
138.26			645.182		495.972		149.21
138.374			637.431		501.77		135.661
138.59			652.547		491.775		160.772
138.743			645.142		491.18		153.962
138.794			643.392		495.88		147.512
